# Espectro 15MV Elekta Agility Pinnacle TPS
# Hospital Universitario Ramón y Cajal

#E(MeV)	        I(a.u.)
1.00E-01	1.50E-02	
2.00E-01	2.90E-02	
3.00E-01	4.20E-02	
4.00E-01	5.30E-02	
5.00E-01	6.40E-02	
6.00E-01	7.40E-02	
8.00E-01	9.00E-02	
1.00E+00	1.04E-01	
1.25E+00	1.17E-01	
1.50E+00	1.26E-01	
2.00E+00	1.35E-01	
3.00E+00	1.32E-01	
4.00E+00	1.13E-01	
5.00E+00	9.00E-02	
6.00E+00	6.80E-02	
8.00E+00	3.50E-02	
1.00E+01	1.60E-02	
1.50E+01	1.00E-03	
	
